0.0000000	569.04138
0.020000000	569.04138
0.040000000	572.59995
0.060000000	571.89792
0.080000000	574.59077
0.10000000	578.92458
0.12000000	581.51261
0.14000000	585.16307
0.16000000	587.72639
0.18000000	591.30283
0.20000000	596.80500
0.22000000	600.19184
0.24000000	607.16822
0.26000000	613.77893
0.28000000	626.24764
0.30000000	646.00187
0.32000000	692.80995
0.34000000	757.83222
0.36000000	896.94028
0.38000000	1081.2752
0.40000000	1237.1840
0.42000000	1419.3849
0.44000000	1545.5445
0.46000000	1716.7469
0.48000000	1858.4959
0.50000000	1957.3824
0.52000000	2064.7680
0.54000000	2188.8351
0.56000000	2275.6175
0.58000000	2367.1122
0.60000000	2464.4107
0.62000000	2545.8974
0.64000000	2647.0734
0.66000000	2742.0285
0.68000000	2864.6834
0.70000000	2995.3172
0.72000000	3168.8072
0.74000000	3322.0159
0.76000000	3505.8930
0.78000000	3638.0980
0.80000000	3756.4557
0.82000000	3857.4466
0.84000000	3940.0164
0.86000000	4016.8849
0.88000000	4078.8665
0.90000000	4134.8394
0.92000000	4185.1978
0.94000000	4237.8731
0.96000000	4282.9236
0.98000000	4329.4034
1.0000000	4372.4416
1.0200000	4410.9086
1.0400000	4447.8111
1.0600000	4480.9429
1.0800000	4511.9811
1.1000000	4541.8183
1.1200000	4569.9052
1.1400000	4597.4381
1.1600000	4625.6332
1.1800000	4650.3096
1.2000000	4675.1565
1.2200000	4700.2332
1.2400000	4722.1456
1.2600000	4744.9819
1.2800000	4769.6683
1.3000000	4791.4285
1.3200000	4811.1450
1.3400000	4834.6551
1.3600000	4857.5756
1.3800000	4881.8573
1.4000000	4906.4141
1.4200000	4934.1463
1.4400000	4965.6025
1.4600000	4999.4214
1.4800000	5035.2397
1.5000000	5077.7069
1.5200000	5120.8100
1.5400000	5167.7079
1.5600000	5220.5626
1.5800000	5272.1708
1.6000000	5331.5306
1.6200000	5395.3011
1.6400000	5463.7488
1.6600000	5535.3615
1.6800000	5618.5429
1.7000000	5699.7035
1.7200000	5794.0840
1.7400000	5891.3130
1.7600000	5990.6158
1.7800000	6104.2027
1.8000000	6216.9859
1.8200000	6337.4332
1.8400000	6463.1511
1.8600000	6597.1750
1.8800000	6727.3572
1.9000000	6874.7070
1.9200000	7010.3996
1.9400000	7152.0512
1.9600000	7301.6252
1.9800000	7439.7943
2.0000000	7582.1953
2.0200000	7723.0465
2.0400000	7852.3719
2.0600000	7973.4363
2.0800000	8090.7292
2.1000000	8185.5372
2.1200000	8277.1906
2.1400000	8349.0125
2.1600000	8403.0648
2.1800000	8441.2098
2.2000000	8459.6576
2.2200000	8460.3480
2.2400000	8443.1243
2.2600000	8405.6171
2.2800000	8354.9316
2.3000000	8279.0599
2.3200000	8195.7381
2.3400000	8093.3571
2.3600000	7976.4721
2.3800000	7853.6107
2.4000000	7724.1837
2.4200000	7578.8962
2.4400000	7438.1050
2.4600000	7290.4123
2.4800000	7133.3638
2.5000000	6989.2197
2.5200000	6831.6445
2.5400000	6682.6141
2.5600000	6535.3623
2.5800000	6389.9146
2.6000000	6243.9588
2.6200000	6110.3873
2.6400000	5968.4008
2.6600000	5838.7853
2.6800000	5712.6176
2.7000000	5584.0823
2.7200000	5467.5617
2.7400000	5353.8300
2.7600000	5241.5276
2.7800000	5134.6214
2.8000000	5034.9264
2.8200000	4931.9518
2.8400000	4843.0950
2.8600000	4752.9600
2.8800000	4666.5115
2.9000000	4587.5240
2.9200000	4508.9649
2.9400000	4433.7598
2.9600000	4361.6551
2.9800000	4290.9004
3.0000000	4219.9699
3.0200000	4156.6272
3.0400000	4090.3993
3.0600000	4031.9146
3.0800000	3975.1473
3.1000000	3919.0947
3.1200000	3865.7535
3.1400000	3815.3621
3.1600000	3765.7584
3.1800000	3719.8597
3.2000000	3676.3333
3.2200000	3631.5767
3.2400000	3591.9647
3.2600000	3550.7679
3.2800000	3511.3195
3.3000000	3474.2586
3.3200000	3438.8879
3.3400000	3403.1834
3.3600000	3370.3678
3.3800000	3336.8955
3.4000000	3303.6669
3.4200000	3272.8603
3.4400000	3240.7523
3.4600000	3210.7240
3.4800000	3180.9107
3.5000000	3151.7096
3.5200000	3122.6566
3.5400000	3094.9577
3.5600000	3065.5029
3.5800000	3038.2637
3.6000000	3010.1248
3.6200000	2981.3088
3.6400000	2953.7656
3.6600000	2926.1291
3.6800000	2897.7725
3.7000000	2869.3845
3.7200000	2841.9783
3.7400000	2813.2375
3.7600000	2786.1246
3.7800000	2756.6355
3.8000000	2727.8079
3.8200000	2699.5193
3.8400000	2671.2855
3.8600000	2642.4831
3.8800000	2614.3118
3.9000000	2585.3179
3.9200000	2557.8474
3.9400000	2532.3688
3.9600000	2506.2740
3.9800000	2483.0054
4.0000000	2460.2608
4.0200000	2439.3470
4.0400000	2419.6785
4.0600000	2401.9864
4.0800000	2385.7844
4.1000000	2372.9035
4.1200000	2361.7599
4.1400000	2352.3140
4.1600000	2345.2445
4.1800000	2339.6256
4.2000000	2335.2794
4.2200000	2332.2600
4.2400000	2330.1316
4.2600000	2328.7700
4.2800000	2328.1380
4.3000000	2328.0488
4.3200000	2328.2873
4.3400000	2328.7230
4.3600000	2328.6054
4.3800000	2328.6094
4.4000000	2328.4729
4.4200000	2328.1432
4.4400000	2327.0906
4.4600000	2325.6212
4.4800000	2324.0075
4.5000000	2322.3037
4.5200000	2320.0740
4.5400000	2317.2240
4.5600000	2314.0753
4.5800000	2310.6108
4.6000000	2307.0321
4.6200000	2303.7360
4.6400000	2300.1918
4.6600000	2296.3226
4.6800000	2292.5263
4.7000000	2288.3489
4.7200000	2284.1627
4.7400000	2280.2000
4.7600000	2276.0805
4.7800000	2272.3088
4.8000000	2268.2742
4.8200000	2264.1162
4.8400000	2259.1830
4.8600000	2253.9103
4.8800000	2248.4915
4.9000000	2243.6024
4.9200000	2238.7560
4.9400000	2234.0458
4.9600000	2229.6280
4.9800000	2225.6575
5.0000000	2221.3338
5.0200000	2217.3686
5.0400000	2213.3744
5.0600000	2209.7310
5.0800000	2206.5314
5.1000000	2203.7639
5.1200000	2200.7937
5.1400000	2197.9139
5.1600000	2195.2807
5.1800000	2192.7297
5.2000000	2190.5413
5.2200000	2188.5780
5.2400000	2186.5288
5.2600000	2184.6674
5.2800000	2183.4229
5.3000000	2182.3289
5.3200000	2181.3800
5.3400000	2180.5590
5.3600000	2180.1215
5.3800000	2179.6909
5.4000000	2179.5091
5.4200000	2179.5722
5.4400000	2179.9317
5.4600000	2180.1537
5.4800000	2181.0331
5.5000000	2182.2826
5.5200000	2183.8127
5.5400000	2185.5997
5.5600000	2187.9713
5.5800000	2190.7103
5.6000000	2193.9088
5.6200000	2197.6420
5.6400000	2201.7885
5.6600000	2205.5261
5.6800000	2209.1867
5.7000000	2213.0333
5.7200000	2217.1033
5.7400000	2221.4089
5.7600000	2226.7051
5.7800000	2231.8527
5.8000000	2237.2346
5.8200000	2242.6777
5.8400000	2248.3144
5.8600000	2254.3697
5.8800000	2260.5703
5.9000000	2266.8866
5.9200000	2273.1247
5.9400000	2279.4425
5.9600000	2285.7748
5.9800000	2292.9146
6.0000000	2300.3199
6.0200000	2307.7997
6.0400000	2315.5400
6.0600000	2323.1209
6.0800000	2330.2403
6.1000000	2337.3555
6.1200000	2344.4797
6.1400000	2351.3639
6.1600000	2358.5089
6.1800000	2365.5072
6.2000000	2372.6295
6.2200000	2379.6409
6.2400000	2385.9328
6.2600000	2391.7934
6.2800000	2397.4029
6.3000000	2402.5893
6.3200000	2407.7006
6.3400000	2412.3945
6.3600000	2416.6062
6.3800000	2420.8028
6.4000000	2424.7507
6.4200000	2428.3113
6.4400000	2431.3035
6.4600000	2433.8158
6.4800000	2436.1427
6.5000000	2438.0601
6.5200000	2439.8720
6.5400000	2440.8276
6.5600000	2441.8427
6.5800000	2442.2145
6.6000000	2442.2291
6.6200000	2442.0251
6.6400000	2441.6991
6.6600000	2441.1974
6.6800000	2440.7125
6.7000000	2439.5861
6.7200000	2438.2501
6.7400000	2436.4871
6.7600000	2434.7574
6.7800000	2433.4694
6.8000000	2432.0341
6.8200000	2431.0951
6.8400000	2429.8058
6.8600000	2428.5709
6.8800000	2427.1808
6.9000000	2425.9198
6.9200000	2424.4828
6.9400000	2423.5515
6.9600000	2422.9666
6.9800000	2422.5203
7.0000000	2421.9854
7.0200000	2421.3379
7.0400000	2421.4047
7.0600000	2421.5349
7.0800000	2422.1366
7.1000000	2422.8707
7.1200000	2424.0415
7.1400000	2425.2013
7.1600000	2426.2194
7.1800000	2427.7032
7.2000000	2429.3784
7.2200000	2431.5122
7.2400000	2433.5815
7.2600000	2435.8458
7.2800000	2437.9325
7.3000000	2439.9151
7.3200000	2441.7499
7.3400000	2443.4739
7.3600000	2444.7470
7.3800000	2446.1100
7.4000000	2447.1957
7.4200000	2447.8598
7.4400000	2447.6960
7.4600000	2446.8671
7.4800000	2445.0845
7.5000000	2442.3204
7.5200000	2438.5884
7.5400000	2434.0426
7.5600000	2428.6793
7.5800000	2422.0498
7.6000000	2414.6190
7.6200000	2405.6035
7.6400000	2395.2807
7.6600000	2383.6047
7.6800000	2370.9557
7.7000000	2356.5198
7.7200000	2341.0252
7.7400000	2323.0417
7.7600000	2305.0442
7.7800000	2285.6874
7.8000000	2265.2018
7.8200000	2243.0381
7.8400000	2220.2184
7.8600000	2196.2937
7.8800000	2171.9697
7.9000000	2147.6937
7.9200000	2121.8750
7.9400000	2096.7093
7.9600000	2070.9268
7.9800000	2045.0948
8.0000000	2019.1973
8.0200000	1994.1483
8.0400000	1968.2615
8.0600000	1943.9299
8.0800000	1919.4079
8.1000000	1895.6674
8.1200000	1872.6988
8.1400000	1850.7685
8.1600000	1828.7658
8.1800000	1808.3173
8.2000000	1788.6917
8.2200000	1769.3555
8.2400000	1751.2497
8.2600000	1734.1542
8.2800000	1717.5552
8.3000000	1702.3700
8.3200000	1688.2600
8.3400000	1674.6378
8.3600000	1661.9932
8.3800000	1650.0479
8.4000000	1638.4250
8.4200000	1627.6710
8.4400000	1617.6578
8.4600000	1608.5244
8.4800000	1600.1559
8.5000000	1592.5994
8.5200000	1585.4318
8.5400000	1579.1224
8.5600000	1573.1037
8.5800000	1567.5580
8.6000000	1562.7672
8.6200000	1558.3966
8.6400000	1554.2259
8.6600000	1550.7390
8.6800000	1547.5812
8.7000000	1544.5635
8.7200000	1541.9263
8.7400000	1539.7317
8.7600000	1537.7113
8.7800000	1536.1898
8.8000000	1534.8134
8.8200000	1533.7410
8.8400000	1532.8812
8.8600000	1532.0373
8.8800000	1531.2484
8.9000000	1530.4694
8.9200000	1529.8276
8.9400000	1529.4222
8.9600000	1529.1268
8.9800000	1528.9441
9.0000000	1528.7817
9.0200000	1528.6432
9.0400000	1528.6422
9.0600000	1528.6245
9.0800000	1528.6688
9.1000000	1528.6953
9.1200000	1528.8325
9.1400000	1529.0119
9.1600000	1528.9976
9.1800000	1529.0789
9.2000000	1528.8953
9.2200000	1528.7165
9.2400000	1528.4444
9.2600000	1528.2647
9.2800000	1528.1242
9.3000000	1527.9028
9.3200000	1527.5461
9.3400000	1526.9622
9.3600000	1526.1141
9.3800000	1525.2759
9.4000000	1524.4562
9.4200000	1523.6103
9.4400000	1522.7466
9.4600000	1521.7439
9.4800000	1520.4666
9.5000000	1519.1545
9.5200000	1517.8537
9.5400000	1516.2216
9.5600000	1514.3564
9.5800000	1512.2262
9.6000000	1510.0743
9.6200000	1508.0784
9.6400000	1505.9803
9.6600000	1503.7833
9.6800000	1501.3758
9.7000000	1498.9291
9.7200000	1496.2485
9.7400000	1493.4645
9.7600000	1490.4877
9.7800000	1487.4195
9.8000000	1484.3448
9.8200000	1481.3289
9.8400000	1477.8854
9.8600000	1474.4602
9.8800000	1471.0366
9.9000000	1467.5045
9.9200000	1463.8619
9.9400000	1459.9895
9.9600000	1456.0007
9.9800000	1452.0175
10.000000	1448.1146
10.020000	1444.0779
10.040000	1440.0040
10.060000	1435.9180
10.080000	1431.4996
10.100000	1427.1231
10.120000	1422.8441
10.140000	1418.5333
10.160000	1414.2896
10.180000	1409.8948
10.200000	1405.4285
10.220000	1401.0213
10.240000	1396.9354
10.260000	1392.5702
10.280000	1388.3351
10.300000	1384.1592
10.320000	1380.1896
10.340000	1376.2705
10.360000	1372.4711
10.380000	1368.5586
10.400000	1364.6706
10.420000	1360.8995
10.440000	1357.2783
10.460000	1353.7253
10.480000	1350.3547
10.500000	1346.9384
10.520000	1343.5574
10.540000	1340.4349
10.560000	1337.2979
10.580000	1334.1698
10.600000	1331.4112
10.620000	1328.9040
10.640000	1326.5058
10.660000	1324.1586
10.680000	1322.0654
10.700000	1320.1107
10.720000	1318.2594
10.740000	1316.6473
10.760000	1315.2798
10.780000	1314.1442
10.800000	1312.9709
10.820000	1311.8244
10.840000	1310.9525
10.860000	1310.3628
10.880000	1309.9907
10.900000	1309.7186
10.920000	1309.5972
10.940000	1309.4035
10.960000	1309.5880
10.980000	1310.1055
11.000000	1310.7166
11.020000	1311.3482
11.040000	1312.1826
11.060000	1313.4046
11.080000	1314.7233
11.100000	1316.1000
11.120000	1317.7019
11.140000	1319.2401
11.160000	1320.8636
11.180000	1322.6539
11.200000	1324.6737
11.220000	1326.9645
11.240000	1329.4054
11.260000	1331.7905
11.280000	1334.2080
11.300000	1336.8148
11.320000	1339.4371
11.340000	1341.8759
11.360000	1344.3477
11.380000	1346.8640
11.400000	1349.2961
11.420000	1351.7562
11.440000	1354.3805
11.460000	1356.8158
11.480000	1359.2974
11.500000	1361.7870
11.520000	1364.4154
11.540000	1366.8310
11.560000	1369.1248
11.580000	1371.0147
11.600000	1372.8798
11.620000	1374.7653
11.640000	1376.4327
11.660000	1378.0738
11.680000	1379.7619
11.700000	1381.1572
11.720000	1382.3309
11.740000	1383.2781
11.760000	1384.3396
11.780000	1385.3360
11.800000	1386.1536
11.820000	1386.8088
11.840000	1387.1978
11.860000	1387.5676
11.880000	1387.7561
11.900000	1387.8542
11.920000	1387.7269
11.940000	1387.5924
11.960000	1387.3345
11.980000	1387.0449
12.000000	1386.5130
12.020000	1385.9710
12.040000	1385.1601
12.060000	1384.5187
12.080000	1383.8701
12.100000	1383.0221
12.120000	1382.1095
12.140000	1381.1226
12.160000	1379.9969
12.180000	1378.7757
12.200000	1377.6280
12.220000	1376.4862
12.240000	1375.2069
12.260000	1373.8781
12.280000	1372.4236
12.300000	1370.9491
12.320000	1369.3965
12.340000	1368.0682
12.360000	1366.8196
12.380000	1365.3904
12.400000	1363.8565
12.420000	1362.2386
12.440000	1360.7113
12.460000	1359.0940
12.480000	1357.4580
12.500000	1355.7943
12.520000	1353.9884
12.540000	1352.2773
12.560000	1350.5890
12.580000	1348.8668
12.600000	1347.1173
12.620000	1345.5997
12.640000	1344.2263
12.660000	1342.6335
12.680000	1340.7940
12.700000	1338.8772
12.720000	1336.9565
12.740000	1335.2451
12.760000	1333.6297
12.780000	1332.0699
12.800000	1330.2994
12.820000	1328.4274
12.840000	1326.5192
12.860000	1324.7206
12.880000	1322.9742
12.900000	1321.1435
12.920000	1319.1382
12.940000	1317.1372
12.960000	1315.1818
12.980000	1313.3047
13.000000	1311.3196
13.020000	1309.3478
13.040000	1307.3028
13.060000	1305.3152
13.080000	1303.4000
13.100000	1301.5147
13.120000	1299.5552
13.140000	1297.5054
13.160000	1295.3624
13.180000	1293.1746
13.200000	1291.0031
13.220000	1288.7915
13.240000	1286.5417
13.260000	1284.4662
13.280000	1282.3838
13.300000	1280.1429
13.320000	1277.9635
13.340000	1275.8775
13.360000	1273.6923
13.380000	1271.4105
13.400000	1269.0967
13.420000	1266.8748
13.440000	1264.6682
13.460000	1262.4167
13.480000	1260.0985
13.500000	1257.8617
13.520000	1255.4110
13.540000	1252.8620
13.560000	1250.3150
13.580000	1247.9523
13.600000	1245.7183
13.620000	1243.1165
13.640000	1240.4535
13.660000	1238.0351
13.680000	1235.7290
13.700000	1233.4306
13.720000	1231.1083
13.740000	1228.7395
13.760000	1226.2826
13.780000	1223.8631
13.800000	1221.5875
13.820000	1219.3115
13.840000	1216.8757
13.860000	1214.5086
13.880000	1212.0491
13.900000	1209.6973
13.920000	1207.5392
13.940000	1205.3699
13.960000	1202.9999
13.980000	1200.5771
14.000000	1198.1545
14.020000	1195.6476
14.040000	1193.3494
14.060000	1191.2283
14.080000	1188.9179
14.100000	1186.5364
14.120000	1184.4633
14.140000	1182.4064
14.160000	1180.2353
14.180000	1178.1450
14.200000	1176.2765
14.220000	1174.3081
14.240000	1172.2670
14.260000	1170.2046
14.280000	1168.2665
14.300000	1166.4560
14.320000	1164.5797
14.340000	1162.6196
14.360000	1160.5828
14.380000	1158.7953
14.400000	1157.0104
14.420000	1155.2743
14.440000	1153.5315
14.460000	1151.8057
14.480000	1149.9583
14.500000	1148.3650
14.520000	1146.8371
14.540000	1145.4160
14.560000	1144.0363
14.580000	1142.8080
14.600000	1141.4115
14.620000	1139.8724
14.640000	1138.4832
14.660000	1137.2443
14.680000	1135.9472
14.700000	1134.7049
14.720000	1133.3447
14.740000	1131.9860
14.760000	1130.6088
14.780000	1129.4279
14.800000	1128.2994
14.820000	1127.0490
14.840000	1125.8392
14.860000	1124.8067
14.880000	1123.8469
14.900000	1122.8410
14.920000	1121.8851
14.940000	1120.9952
14.960000	1119.9668
14.980000	1118.9675
15.000000	1118.0703
15.020000	1117.1626
15.040000	1116.2723
15.060000	1115.4941
15.080000	1114.6862
15.100000	1113.8652
15.120000	1112.9291
15.140000	1112.1418
15.160000	1111.3406
15.180000	1110.5898
15.200000	1109.8799
15.220000	1109.0201
15.240000	1108.2561
15.260000	1107.5015
15.280000	1106.7749
15.300000	1105.9314
15.320000	1105.1583
15.340000	1104.4204
15.360000	1103.6636
15.380000	1102.9659
15.400000	1102.3784
15.420000	1101.8068
15.440000	1101.2839
15.460000	1100.7077
15.480000	1100.0235
15.500000	1099.2497
15.520000	1098.5468
15.540000	1097.8930
15.560000	1097.1795
15.580000	1096.4646
15.600000	1095.7877
15.620000	1095.1468
15.640000	1094.4230
15.660000	1093.6588
15.680000	1092.9239
15.700000	1092.3074
15.720000	1091.6337
15.740000	1091.0223
15.760000	1090.3904
15.780000	1089.7944
15.800000	1089.1790
15.820000	1088.5242
15.840000	1087.7979
15.860000	1087.2084
15.880000	1086.6675
15.900000	1086.0800
15.920000	1085.3793
15.940000	1084.6354
15.960000	1083.8776
15.980000	1082.9795
16.000000	1082.2322
16.020000	1081.5118
16.040000	1080.8465
16.060000	1080.1959
16.080000	1079.5465
16.100000	1078.8351
16.120000	1078.1926
16.140000	1077.3732
16.160000	1076.5853
16.180000	1075.7078
16.200000	1075.0841
16.220000	1074.4477
16.240000	1073.6266
16.260000	1072.6912
16.280000	1071.8001
16.300000	1071.0093
16.320000	1070.2807
16.340000	1069.5641
16.360000	1068.8062
16.380000	1068.2306
16.400000	1067.5233
16.420000	1066.8097
16.440000	1066.0742
16.460000	1065.4118
16.480000	1064.7560
16.500000	1064.0718
16.520000	1063.3655
16.540000	1062.6995
16.560000	1062.0126
16.580000	1061.3268
16.600000	1060.7672
16.620000	1060.1309
16.640000	1059.5394
16.660000	1058.9557
16.680000	1058.4044
16.700000	1057.9441
16.720000	1057.4538
16.740000	1056.9186
16.760000	1056.3848
16.780000	1055.9226
16.800000	1055.4936
16.820000	1055.0433
16.840000	1054.6808
16.860000	1054.1725
16.880000	1053.7609
16.900000	1053.3882
16.920000	1053.0884
16.940000	1052.6977
16.960000	1052.2398
16.980000	1051.9514
17.000000	1051.7924
17.020000	1051.6713
17.040000	1051.5100
17.060000	1051.3827
17.080000	1051.2428
17.100000	1051.1336
17.120000	1051.1589
17.140000	1051.1000
17.160000	1051.0621
17.180000	1051.0870
17.200000	1051.1387
17.220000	1051.1041
17.240000	1051.1272
17.260000	1051.2341
17.280000	1051.4454
17.300000	1051.5993
17.320000	1051.8389
17.340000	1051.9987
17.360000	1052.1449
17.380000	1052.2424
17.400000	1052.3743
17.420000	1052.6229
17.440000	1052.8958
17.460000	1053.3078
17.480000	1053.7659
17.500000	1054.1813
17.520000	1054.6388
17.540000	1055.1586
17.560000	1055.5605
17.580000	1056.1302
17.600000	1056.6395
17.620000	1057.1298
17.640000	1057.5584
17.660000	1058.0409
17.680000	1058.6170
17.700000	1059.1691
17.720000	1059.8208
17.740000	1060.5435
17.760000	1061.1502
17.780000	1061.7333
17.800000	1062.3515
17.820000	1063.0778
17.840000	1063.7089
17.860000	1064.3120
17.880000	1064.9033
17.900000	1065.6319
17.920000	1066.2947
17.940000	1066.9264
17.960000	1067.4950
17.980000	1068.1161
18.000000	1068.7026
18.020000	1069.1980
18.040000	1069.6280
18.060000	1070.2171
18.080000	1070.7563
18.100000	1071.1089
18.120000	1071.4399
18.140000	1071.8357
18.160000	1072.3187
18.180000	1072.8079
18.200000	1073.2552
18.220000	1073.6033
18.240000	1074.0202
18.260000	1074.2990
18.280000	1074.5545
18.300000	1074.7508
18.320000	1074.9438
18.340000	1075.0857
18.360000	1075.0461
18.380000	1074.9953
18.400000	1075.1539
18.420000	1075.2500
18.440000	1075.3552
18.460000	1075.3325
18.480000	1075.2565
18.500000	1075.0309
18.520000	1074.7942
18.540000	1074.6220
18.560000	1074.4801
18.580000	1074.1934
18.600000	1073.8924
18.620000	1073.5021
18.640000	1073.0122
18.660000	1072.6020
18.680000	1072.1925
18.700000	1071.8170
18.720000	1071.3841
18.740000	1070.9300
18.760000	1070.3836
18.780000	1069.7446
18.800000	1069.1980
18.820000	1068.6257
18.840000	1067.9519
18.860000	1067.2657
18.880000	1066.5508
18.900000	1065.8269
18.920000	1065.1613
18.940000	1064.4470
18.960000	1063.6604
18.980000	1062.7784
19.000000	1061.9054
19.020000	1060.9056
19.040000	1059.9766
19.060000	1059.0956
19.080000	1058.3234
19.100000	1057.3650
19.120000	1056.4223
19.140000	1055.4147
19.160000	1054.4961
19.180000	1053.5246
19.200000	1052.6175
19.220000	1051.5424
19.240000	1050.4912
19.260000	1049.5146
19.280000	1048.6683
19.300000	1047.7962
19.320000	1046.9259
19.340000	1045.9515
19.360000	1044.8474
19.380000	1043.8283
19.400000	1042.9688
19.420000	1042.0896
19.440000	1041.2665
19.460000	1040.3960
19.480000	1039.5017
19.500000	1038.5029
19.520000	1037.4250
19.540000	1036.4278
19.560000	1035.4329
19.580000	1034.6517
19.600000	1033.7178
19.620000	1032.9661
19.640000	1032.2546
19.660000	1031.3677
19.680000	1030.4612
19.700000	1029.6993
19.720000	1028.8251
19.740000	1027.8975
19.760000	1026.9636
19.780000	1026.1620
19.800000	1025.3952
19.820000	1024.7379
19.840000	1024.0403
19.860000	1023.2328
19.880000	1022.4093
19.900000	1021.7540
19.920000	1021.1279
19.940000	1020.4885
19.960000	1019.6872
19.980000	1018.9524
20.000000	1018.2211
20.020000	1017.4968
20.040000	1016.8109
20.060000	1016.1183
20.080000	1015.3952
20.100000	1014.8089
20.120000	1014.2106
20.140000	1013.7649
20.160000	1013.2120
20.180000	1012.7396
20.200000	1012.2575
20.220000	1011.6492
20.240000	1011.1334
20.260000	1010.6909
20.280000	1010.2165
20.300000	1009.7748
20.320000	1009.3408
20.340000	1008.8282
20.360000	1008.2631
20.380000	1007.7449
20.400000	1007.2900
20.420000	1006.8507
20.440000	1006.4221
20.460000	1006.0409
20.480000	1005.7068
20.500000	1005.4159
20.520000	1005.0839
20.540000	1004.6352
20.560000	1004.2389
20.580000	1003.9166
20.600000	1003.5151
20.620000	1003.1218
20.640000	1002.8775
20.660000	1002.7528
20.680000	1002.4902
20.700000	1002.1247
20.720000	1001.7115
20.740000	1001.4250
20.760000	1001.2281
20.780000	1001.0443
20.800000	1000.8107
20.820000	1000.4077
20.840000	1000.1051
20.860000	999.83113
20.880000	999.51562
20.900000	999.32086
20.920000	999.27918
20.940000	999.20978
20.960000	999.02023
20.980000	998.57213
21.000000	998.33998
21.020000	998.30772
21.040000	998.30369
21.060000	998.11079
21.080000	997.86070
21.100000	997.63765
21.120000	997.51325
21.140000	997.41116
21.160000	997.32363
21.180000	997.16868
21.200000	997.08223
21.220000	996.96607
21.240000	996.87736
21.260000	996.81688
21.280000	996.72004
21.300000	996.58966
21.320000	996.44576
21.340000	996.38045
21.360000	996.37299
21.380000	996.31697
21.400000	996.18448
21.420000	996.05157
21.440000	995.99185
21.460000	995.87660
21.480000	995.77321
21.500000	995.78535
21.520000	995.84819
21.540000	995.87932
21.560000	995.78195
21.580000	995.71964
21.600000	995.66857
21.620000	995.57073
21.640000	995.51836
21.660000	995.48048
21.680000	995.44921
21.700000	995.45850
21.720000	995.49032
21.740000	995.48810
21.760000	995.49081
21.780000	995.54184
21.800000	995.49727
21.820000	995.45384
21.840000	995.41033
21.860000	995.30551
21.880000	995.25015
21.900000	995.34466
21.920000	995.39023
21.940000	995.45662
21.960000	995.43061
21.980000	995.42661
22.000000	995.45193
22.020000	995.51372
22.040000	995.40185
22.060000	995.27794
22.080000	995.21636
22.100000	995.21872
22.120000	995.06951
22.140000	995.09687
22.160000	995.04125
22.180000	995.02592
22.200000	995.08875
22.220000	995.14689
22.240000	995.15129
22.260000	995.09108
22.280000	995.04256
22.300000	995.00598
22.320000	995.10927
22.340000	995.20327
22.360000	995.20313
22.380000	995.20088
22.400000	995.09801
22.420000	995.02886
22.440000	994.99114
22.460000	994.91156
22.480000	994.86795
22.500000	994.92126
22.520000	994.88737
22.540000	994.83828
22.560000	994.80224
22.580000	994.84292
22.600000	994.76997
22.620000	994.70347
22.640000	994.62282
22.660000	994.45931
22.680000	994.30653
22.700000	994.33648
22.720000	994.32334
22.740000	994.31222
22.760000	994.25592
22.780000	994.32643
22.800000	994.29023
22.820000	994.19101
22.840000	994.15867
22.860000	994.09227
22.880000	994.00917
22.900000	993.82455
22.920000	993.79677
22.940000	993.77595
22.960000	993.72737
22.980000	993.57369
23.000000	993.44177
23.020000	993.46109
23.040000	993.44626
23.060000	993.35368
23.080000	993.25674
23.100000	993.16641
23.120000	993.03196
23.140000	993.03621
23.160000	993.10337
23.180000	993.17639
23.200000	993.19320
23.220000	993.16901
23.240000	993.15411
23.260000	993.05070
23.280000	992.95584
23.300000	992.92770
23.320000	992.86375
23.340000	992.83633
23.360000	992.72667
23.380000	992.56998
23.400000	992.48446
23.420000	992.54086
23.440000	992.62645
23.460000	992.53636
23.480000	992.36454
23.500000	992.35261
23.520000	992.44365
23.540000	992.51371
23.560000	992.55741
23.580000	992.50692
23.600000	992.47623
23.620000	992.37880
23.640000	992.40936
23.660000	992.50935
23.680000	992.58240
23.700000	992.58282
23.720000	992.49499
23.740000	992.37388
23.760000	992.41699
23.780000	992.48924
23.800000	992.46479
23.820000	992.45366
23.840000	992.55091
23.860000	992.61702
23.880000	992.59695
23.900000	992.60885
23.920000	992.67043
23.940000	992.55223
23.960000	992.53166
23.980000	992.72606
24.000000	992.85462
24.020000	992.84604
24.040000	992.85010
24.060000	992.96893
24.080000	993.12234
24.100000	993.19873
24.120000	993.21383
24.140000	993.40667
24.160000	993.51915
24.180000	993.41748
24.200000	993.28191
24.220000	993.31956
24.240000	993.43354
24.260000	993.58206
24.280000	993.59751
24.300000	993.53851
24.320000	993.57124
24.340000	993.62050
24.360000	993.78813
24.380000	993.91155
24.400000	993.92313
24.420000	993.94560
24.440000	993.96974
24.460000	994.01558
24.480000	994.12478
24.500000	994.15822
24.520000	994.19988
24.540000	994.20934
24.560000	994.27319
24.580000	994.44544
24.600000	994.54926
24.620000	994.55926
24.640000	994.59628
24.660000	994.60679
24.680000	994.48953
24.700000	994.44389
24.720000	994.50183
24.740000	994.49130
24.760000	994.54363
24.780000	994.50660
24.800000	994.45207
24.820000	994.31676
24.840000	994.24596
24.860000	994.28505
24.880000	994.36217
24.900000	994.33606
24.920000	994.25348
24.940000	994.18876
24.960000	994.21497
24.980000	994.24416
25.000000	994.14628
25.020000	994.03597
25.040000	993.86093
25.060000	993.77191
25.080000	993.70033
25.100000	993.65196
25.120000	993.54865
25.140000	993.53046
25.160000	993.47079
25.180000	993.41492
25.200000	993.27269
25.220000	993.02283
25.240000	992.92319
25.260000	992.80885
25.280000	992.69425
25.300000	992.54734
25.320000	992.24548
25.340000	992.03093
25.360000	991.91332
25.380000	991.92941
25.400000	991.77444
25.420000	991.56862
25.440000	991.37985
25.460000	991.14501
25.480000	991.00087
25.500000	990.81714
25.520000	990.54918
25.540000	990.16379
25.560000	989.95920
25.580000	989.74821
25.600000	989.59026
25.620000	989.41985
25.640000	989.13778
25.660000	988.84212
25.680000	988.64802
25.700000	988.46907
25.720000	988.20089
25.740000	987.89491
25.760000	987.61974
25.780000	987.46836
25.800000	987.18215
25.820000	986.79976
25.840000	986.49151
25.860000	986.36202
25.880000	986.23023
25.900000	985.86584
25.920000	985.56586
25.940000	985.30093
25.960000	985.04886
25.980000	984.75906
26.000000	984.52935
26.020000	984.34025
26.040000	984.16294
26.060000	983.89265
26.080000	983.60348
26.100000	983.33962
26.120000	983.09242
26.140000	982.81826
26.160000	982.46807
26.180000	982.20894
26.200000	982.10366
26.220000	981.91159
26.240000	981.62521
26.260000	981.28649
26.280000	981.01811
26.300000	980.87865
26.320000	980.63766
26.340000	980.42009
26.360000	980.28004
26.380000	980.10243
26.400000	979.77922
26.420000	979.54729
26.440000	979.22220
26.460000	978.92816
26.480000	978.80617
26.500000	978.68233
26.520000	978.55434
26.540000	978.37392
26.560000	978.18163
26.580000	977.99435
26.600000	977.93241
26.620000	977.75858
26.640000	977.50015
26.660000	977.26247
26.680000	977.14843
26.700000	977.11729
26.720000	977.01906
26.740000	976.74769
26.760000	976.47536
26.780000	976.41566
26.800000	976.31661
26.820000	976.06670
26.840000	975.97877
26.860000	975.84970
26.880000	975.76742
26.900000	975.69113
26.920000	975.51754
26.940000	975.35358
26.960000	975.33122
26.980000	975.37235
27.000000	975.30812
27.020000	975.23655
27.040000	975.12368
27.060000	975.03154
27.080000	974.93092
27.100000	974.77791
27.120000	974.67692
27.140000	974.49215
27.160000	974.34480
27.180000	974.30508
27.200000	974.26762
27.220000	974.31819
27.240000	974.36671
27.260000	974.31790
27.280000	974.18221
27.300000	974.05450
27.320000	973.98516
27.340000	973.92628
27.360000	974.00483
27.380000	974.03774
27.400000	974.02818
27.420000	973.94523
27.440000	973.82283
27.460000	973.74920
27.480000	973.74249
27.500000	973.66690
27.520000	973.57389
27.540000	973.59842
27.560000	973.52020
27.580000	973.45777
27.600000	973.59602
27.620000	973.67599
27.640000	973.67958
27.660000	973.64577
27.680000	973.67307
27.700000	973.68590
27.720000	973.57935
27.740000	973.47894
27.760000	973.41374
27.780000	973.28745
27.800000	973.23996
27.820000	973.41001
27.840000	973.43537
27.860000	973.41416
27.880000	973.45450
27.900000	973.52416
27.920000	973.63933
27.940000	973.59199
27.960000	973.63448
27.980000	973.73517
28.000000	973.87124
28.020000	973.91297
28.040000	973.81178
28.060000	973.73031
28.080000	973.70217
28.100000	973.82718
28.120000	973.90884
28.140000	973.99278
28.160000	974.05824
28.180000	974.13319
28.200000	974.15608
28.220000	974.14098
28.240000	974.17945
28.260000	974.12164
28.280000	974.12318
28.300000	974.13098
28.320000	974.17076
28.340000	974.33162
28.360000	974.39668
28.380000	974.28657
28.400000	974.39357
28.420000	974.47697
28.440000	974.63441
28.460000	974.74260
28.480000	974.72915
28.500000	974.82724
28.520000	974.99435
28.540000	975.10481
28.560000	975.07846
28.580000	975.13367
28.600000	975.28245
28.620000	975.35249
28.640000	975.34674
28.660000	975.36926
28.680000	975.49602
28.700000	975.53810
28.720000	975.43431
28.740000	975.50800
28.760000	975.52625
28.780000	975.50832
28.800000	975.44591
28.820000	975.49681
28.840000	975.59276
28.860000	975.67912
28.880000	975.92114
28.900000	976.05968
28.920000	976.17699
28.940000	976.21010
28.960000	976.24027
28.980000	976.30440
29.000000	976.37863
29.020000	976.40000
29.040000	976.40179
29.060000	976.46659
29.080000	976.60650
29.100000	976.72814
29.120000	976.81923
29.140000	976.86369
29.160000	976.96856
29.180000	976.97722
29.200000	976.88878
29.220000	976.96792
29.240000	977.00853
29.260000	976.91208
29.280000	977.01299
29.300000	977.17994
29.320000	977.31128
29.340000	977.36590
29.360000	977.29885
29.380000	977.19607
29.400000	977.26772
29.420000	977.46696
29.440000	977.57392
29.460000	977.61842
29.480000	977.73817
29.500000	977.78670
29.520000	977.71699
29.540000	977.67802
29.560000	977.64829
29.580000	977.57715
29.600000	977.60388
29.620000	977.60550
29.640000	977.65397
29.660000	977.82901
29.680000	977.81115
29.700000	977.73829
29.720000	977.87437
29.740000	977.90988
29.760000	977.79083
29.780000	977.73727
29.800000	977.75126
29.820000	977.69054
29.840000	977.71483
29.860000	977.67609
29.880000	977.59371
29.900000	977.58716
29.920000	977.54157
29.940000	977.48732
29.960000	977.48715
29.980000	977.42575
30.000000	977.46053
30.020000	977.59664
30.040000	977.63505
30.060000	977.64423
30.080000	977.67239
30.100000	977.70108
30.120000	977.51892
30.140000	977.43217
30.160000	977.51174
30.180000	977.52718
30.200000	977.43809
30.220000	977.32645
30.240000	977.13940
30.260000	976.99470
30.280000	976.98473
30.300000	976.91139
30.320000	976.84155
30.340000	976.78459
30.360000	976.65755
30.380000	976.63203
30.400000	976.66674
30.420000	976.61791
30.440000	976.59465
30.460000	976.40895
30.480000	976.18779
30.500000	976.16887
30.520000	976.16595
30.540000	976.16122
30.560000	976.14077
30.580000	976.03762
30.600000	975.83861
30.620000	975.75017
30.640000	975.78126
30.660000	975.84158
30.680000	975.75366
30.700000	975.63587
30.720000	975.44938
30.740000	975.35465
30.760000	975.27035
30.780000	975.22483
30.800000	975.34169
30.820000	975.22232
30.840000	975.09241
30.860000	975.03135
30.880000	974.85411
30.900000	974.72973
30.920000	974.63391
30.940000	974.52297
30.960000	974.58885
30.980000	974.61482
31.000000	974.53298
31.020000	974.42187
31.040000	974.28127
31.060000	973.99146
31.080000	973.91181
31.100000	974.09128
31.120000	973.94408
31.140000	973.93464
31.160000	973.92432
31.180000	973.81752
31.200000	973.58670
31.220000	973.39499
31.240000	973.35354
31.260000	973.33328
31.280000	973.15938
31.300000	972.99426
31.320000	972.93657
31.340000	973.00491
31.360000	973.04752
31.380000	972.79413
31.400000	972.72300
31.420000	972.69992
31.440000	972.56983
31.460000	972.52807
31.480000	972.38483
31.500000	972.25330
31.520000	972.22952
31.540000	972.09082
31.560000	971.94690
31.580000	971.86893
31.600000	971.88893
31.620000	971.85329
31.640000	971.84625
31.660000	971.57277
31.680000	971.34611
31.700000	971.31329
31.720000	971.30568
31.740000	971.32882
31.760000	971.27183
31.780000	971.04573
31.800000	970.67566
31.820000	970.69530
31.840000	970.78512
31.860000	970.68006
31.880000	970.62664
31.900000	970.37269
31.920000	970.08082
31.940000	970.12368
31.960000	970.12723
31.980000	970.12384
32.000000	970.13847
32.020000	970.13259
32.040000	970.18045
32.060000	969.97187
32.080000	969.66230
32.100000	969.72766
32.120000	969.77444
32.140000	969.64851
32.160000	969.42952
32.180000	969.18852
32.200000	968.85449
32.220000	969.05971
32.240000	969.07664
32.260000	969.15003
32.280000	969.15695
32.300000	969.05721
32.320000	968.86833
32.340000	968.66141
32.360000	968.49945
32.380000	968.32081
32.400000	968.17555
32.420000	968.27189
32.440000	968.25850
32.460000	968.07585
32.480000	967.93832
32.500000	968.00094
32.520000	967.98509
32.540000	967.93218
32.560000	967.98026
32.580000	967.82198
32.600000	967.67890
32.620000	967.47439
32.640000	967.35972
32.660000	967.33880
32.680000	967.22273
32.700000	967.17800
32.720000	967.00516
32.740000	966.85239
32.760000	966.92029
32.780000	966.94290
32.800000	966.84748
32.820000	966.79553
32.840000	966.74297
32.860000	966.55846
32.880000	966.44565
32.900000	966.53371
32.920000	966.44283
32.940000	966.39869
32.960000	966.32224
32.980000	966.06272
33.000000	966.03392
33.020000	965.99474
33.040000	965.88910
33.060000	965.74022
33.080000	965.63991
33.100000	965.73508
33.120000	965.68352
33.140000	965.71047
33.160000	965.66537
33.180000	965.40286
33.200000	965.37754
33.220000	965.34560
33.240000	965.23683
33.260000	965.18805
33.280000	965.07150
33.300000	965.00150
33.320000	965.13288
33.340000	965.16975
33.360000	965.01009
33.380000	965.01113
33.400000	965.03875
33.420000	964.91948
33.440000	964.81275
33.460000	964.80115
33.480000	964.78779
33.500000	964.69950
33.520000	964.61816
33.540000	964.57079
33.560000	964.59830
33.580000	964.52287
33.600000	964.39057
33.620000	964.31134
33.640000	964.42555
33.660000	964.35149
33.680000	964.11403
33.700000	964.07536
33.720000	964.07991
33.740000	963.97790
33.760000	964.00531
33.780000	964.04930
33.800000	963.95138
33.820000	963.96585
33.840000	963.98276
33.860000	963.97531
33.880000	964.00605
33.900000	963.90069
33.920000	963.62201
33.940000	963.54729
33.960000	963.65675
33.980000	963.67127
34.000000	963.53410
34.020000	963.48507
34.040000	963.61246
34.060000	963.72621
34.080000	963.68617
34.100000	963.65894
34.120000	963.55495
34.140000	963.44336
34.160000	963.28486
34.180000	963.25880
34.200000	963.33106
34.220000	963.25246
34.240000	963.25226
34.260000	963.23867
34.280000	963.27502
34.300000	963.23521
34.320000	963.15329
34.340000	963.04991
34.360000	962.94756
34.380000	962.98236
34.400000	963.04294
34.420000	963.18391
34.440000	963.26103
34.460000	963.12373
34.480000	963.00757
34.500000	962.92846
34.520000	962.88328
34.540000	962.79806
34.560000	962.77495
34.580000	962.71552
34.600000	962.57545
34.620000	962.64391
34.640000	962.69925
34.660000	962.81788
34.680000	962.76439
34.700000	962.81358
34.720000	962.84085
34.740000	962.79242
34.760000	962.76326
34.780000	962.68648
34.800000	962.71234
34.820000	962.67745
34.840000	962.69960
34.860000	962.63659
34.880000	962.50384
34.900000	962.47654
34.920000	962.52395
34.940000	962.60545
34.960000	962.69635
34.980000	962.65522
35.000000	962.52420
35.020000	962.43635
35.040000	962.42931
35.060000	962.59282
35.080000	962.59157
35.100000	962.47866
35.120000	962.35394
35.140000	962.10495
35.160000	962.06258
35.180000	962.28345
35.200000	962.34766
35.220000	962.28875
35.240000	962.24660
35.260000	962.26670
35.280000	962.25805
35.300000	962.34534
35.320000	962.39159
35.340000	962.20412
35.360000	962.08451
35.380000	962.16771
35.400000	962.11393
35.420000	962.17813
35.440000	962.27200
35.460000	962.15439
35.480000	962.01734
35.500000	962.08738
35.520000	962.17659
35.540000	962.15471
35.560000	961.93476
35.580000	961.89504
35.600000	961.97027
35.620000	962.00563
35.640000	961.94717
35.660000	961.94737
35.680000	961.94778
35.700000	961.85646
35.720000	961.77375
35.740000	961.90641
35.760000	961.89691
35.780000	961.74321
35.800000	961.78440
35.820000	961.86666
35.840000	961.95178
35.860000	961.88934
35.880000	961.83301
35.900000	961.72729
35.920000	961.74978
35.940000	961.77224
35.960000	961.68054
35.980000	961.56985
36.000000	961.57245
36.020000	961.60156
36.040000	961.63738
36.060000	961.53909
36.080000	961.39341
36.100000	961.42373
36.120000	961.36850
36.140000	961.45647
36.160000	961.53581
36.180000	961.40514
36.200000	961.22090
36.220000	961.22997
36.240000	961.30409
36.260000	961.22472
36.280000	961.23596
36.300000	961.23829
36.320000	961.07043
36.340000	960.99349
36.360000	961.02883
36.380000	960.99930
36.400000	960.92924
36.420000	960.96238
36.440000	961.07099
36.460000	961.07545
36.480000	960.92271
36.500000	960.76017
36.520000	960.66125
36.540000	960.64136
36.560000	960.57163
36.580000	960.40897
36.600000	960.36061
36.620000	960.26972
36.640000	960.24137
36.660000	960.22654
36.680000	960.22942
36.700000	960.11805
36.720000	959.99773
36.740000	959.83778
36.760000	959.75433
36.780000	959.85358
36.800000	959.84112
36.820000	959.73533
36.840000	959.64992
36.860000	959.58825
36.880000	959.44962
36.900000	959.31377
36.920000	959.15662
36.940000	959.14188
36.960000	959.05594
36.980000	958.87411
37.000000	958.81477
37.020000	958.80604
37.040000	958.76059
37.060000	958.57553
37.080000	958.45356
37.100000	958.31552
37.120000	958.24923
37.140000	958.22550
37.160000	958.08598
37.180000	957.90701
37.200000	957.74996
37.220000	957.60904
37.240000	957.64337
37.260000	957.61428
37.280000	957.56523
37.300000	957.49109
37.320000	957.33852
37.340000	957.19660
37.360000	957.10864
37.380000	957.01715
37.400000	957.01741
37.420000	956.94810
37.440000	956.78935
37.460000	956.51340
37.480000	956.42752
37.500000	956.42565
37.520000	956.33389
37.540000	956.20514
37.560000	956.11430
37.580000	956.05391
37.600000	955.88276
37.620000	955.72809
37.640000	955.73908
37.660000	955.81848
37.680000	955.62823
37.700000	955.60729
37.720000	955.60003
37.740000	955.47507
37.760000	955.36744
37.780000	955.08555
37.800000	954.99161
37.820000	954.96909
37.840000	954.80078
37.860000	954.65411
37.880000	954.52727
37.900000	954.43910
37.920000	954.23105
37.940000	954.06395
37.960000	954.07357
37.980000	953.97751
38.000000	953.75038
38.020000	953.78009
38.040000	953.92470
38.060000	953.76776
38.080000	953.57160
38.100000	953.47294
38.120000	953.25922
38.140000	953.20877
38.160000	953.10651
38.180000	953.08541
38.200000	952.98233
38.220000	952.87463
38.240000	952.74279
38.260000	952.59253
38.280000	952.47303
38.300000	952.21097
38.320000	952.04959
38.340000	951.99003
38.360000	951.94105
38.380000	952.04358
38.400000	952.04706
38.420000	951.89807
38.440000	951.80601
38.460000	951.67813
38.480000	951.57326
38.500000	951.51598
38.520000	951.37034
38.540000	951.23681
38.560000	951.16551
38.580000	951.13162
38.600000	951.02760
38.620000	950.90828
38.640000	950.82049
38.660000	950.70772
38.680000	950.57972
38.700000	950.46040
38.720000	950.33467
38.740000	950.24108
38.760000	950.22546
38.780000	950.14235
38.800000	950.13625
38.820000	949.99484
38.840000	949.86351
38.860000	949.80089
38.880000	949.62345
38.900000	949.49652
38.920000	949.46015
38.940000	949.42706
38.960000	949.28747
38.980000	949.01589
39.000000	948.94764
39.020000	948.84509
39.040000	948.73324
39.060000	948.75600
39.080000	948.81773
39.100000	948.78101
39.120000	948.59221
39.140000	948.46944
39.160000	948.46810
39.180000	948.40117
39.200000	948.22970
39.220000	948.10861
39.240000	948.13586
39.260000	948.18525
39.280000	948.14167
39.300000	948.04782
39.320000	947.79371
39.340000	947.63387
39.360000	947.50304
39.380000	947.29749
39.400000	947.28133
39.420000	947.46029
39.440000	947.37047
39.460000	947.20790
39.480000	947.09672
39.500000	947.02830
39.520000	946.93673
39.540000	946.76448
39.560000	946.64545
39.580000	946.79433
39.600000	946.83276
39.620000	946.70903
39.640000	946.61235
39.660000	946.53385
39.680000	946.55010
39.700000	946.43090
39.720000	946.23517
39.740000	946.06588
39.760000	946.00998
39.780000	946.04442
39.800000	945.94939
39.820000	945.91581
39.840000	946.02799
39.860000	946.11158
39.880000	946.00453
39.900000	945.91371
39.920000	945.59913
39.940000	945.42604
39.960000	945.38810
39.980000	945.36264
40.000000	945.24593
40.020000	945.12972
40.040000	944.98197
40.060000	944.92634
40.080000	944.97431
40.100000	945.08148
40.120000	944.90800
40.140000	944.75061
40.160000	944.74732
40.180000	944.72071
40.200000	944.65716
40.220000	944.54739
40.240000	944.42265
40.260000	944.43208
40.280000	944.42823
40.300000	944.54319
40.320000	944.43636
40.340000	944.32748
40.360000	944.09775
40.380000	943.99570
40.400000	944.08250
40.420000	943.98217
40.440000	943.73514
40.460000	943.73468
40.480000	943.60489
40.500000	943.64278
40.520000	943.62382
40.540000	943.60395
40.560000	943.54106
40.580000	943.41733
40.600000	943.24825
40.620000	943.21715
40.640000	943.23653
40.660000	943.34680
40.680000	943.20989
40.700000	943.08799
40.720000	942.85175
40.740000	942.76763
40.760000	942.79122
40.780000	942.72814
40.800000	942.63669
40.820000	942.63314
40.840000	942.58425
40.860000	942.67271
40.880000	942.56355
40.900000	942.33161
40.920000	942.32712
40.940000	942.28510
40.960000	942.17368
40.980000	942.03942
41.000000	941.95930
41.020000	941.90115
41.040000	941.97107
41.060000	942.03165
41.080000	942.00854
41.100000	941.84673
41.120000	941.88095
41.140000	941.80873
41.160000	941.56621
41.180000	941.58269
41.200000	941.45290
41.220000	941.31045
41.240000	941.19086
41.260000	941.16063
41.280000	941.20549
41.300000	940.99769
41.320000	941.05156
41.340000	940.86901
41.360000	940.74642
41.380000	940.79504
41.400000	940.73812
41.420000	940.59640
41.440000	940.62383
41.460000	940.76569
41.480000	940.52096
41.500000	940.34870
41.520000	940.22354
41.540000	940.30278
41.560000	940.33668
41.580000	940.20014
41.600000	940.15185
41.620000	939.99289
41.640000	939.81033
41.660000	939.79057
41.680000	939.80039
41.700000	939.75239
41.720000	939.71697
41.740000	939.78407
41.760000	939.70609
41.780000	939.45950
41.800000	939.38529
41.820000	939.34644
41.840000	939.39359
41.860000	939.35238
41.880000	939.22540
41.900000	939.15339
41.920000	939.10816
41.940000	939.04321
41.960000	938.96277
41.980000	938.67862
42.000000	938.54259
42.020000	938.50605
42.040000	938.36929
42.060000	938.35554
42.080000	938.34150
42.100000	938.26031
42.120000	938.09924
42.140000	937.98789
42.160000	938.11115
42.180000	938.16260
42.200000	937.95006
42.220000	937.85166
42.240000	937.71190
42.260000	937.53751
42.280000	937.51371
42.300000	937.30596
42.320000	937.27997
42.340000	937.19589
42.360000	937.00089
42.380000	936.87419
42.400000	936.83205
42.420000	936.75789
42.440000	936.73234
42.460000	936.78466
42.480000	936.71807
42.500000	936.57498
42.520000	936.47767
42.540000	936.38175
42.560000	936.36600
42.580000	936.41287
42.600000	936.26596
42.620000	936.08541
42.640000	936.05444
42.660000	935.95454
42.680000	935.89246
42.700000	935.76418
42.720000	935.73114
42.740000	935.61291
42.760000	935.45792
42.780000	935.37143
42.800000	935.27673
42.820000	935.23003
42.840000	935.19884
42.860000	935.13938
42.880000	935.11189
42.900000	935.11526
42.920000	934.91298
42.940000	934.84976
42.960000	934.88151
42.980000	934.72821
43.000000	934.54969
43.020000	934.50315
43.040000	934.46413
43.060000	934.46479
43.080000	934.29671
43.100000	934.06689
43.120000	933.97554
43.140000	933.93303
43.160000	933.80703
43.180000	933.62953
43.200000	933.72265
43.220000	933.79076
43.240000	933.51535
43.260000	933.27144
43.280000	933.24750
43.300000	933.19002
43.320000	933.05471
43.340000	933.05018
43.360000	933.04340
43.380000	932.87131
43.400000	932.76804
43.420000	932.72126
43.440000	932.58092
43.460000	932.40270
43.480000	932.36108
43.500000	932.36063
43.520000	932.30130
43.540000	932.06176
43.560000	931.91778
43.580000	931.74504
43.600000	931.73297
43.620000	931.66655
43.640000	931.58328
43.660000	931.53310
43.680000	931.29541
43.700000	931.30996
43.720000	931.21461
43.740000	931.19599
43.760000	931.06874
43.780000	930.95634
43.800000	930.89333
43.820000	930.74418
43.840000	930.67329
43.860000	930.70549
43.880000	930.47578
43.900000	930.45907
43.920000	930.31396
43.940000	930.12016
43.960000	929.90862
43.980000	929.82962
44.000000	929.73921
44.020000	929.56637
44.040000	929.53893
44.060000	929.24426
44.080000	929.29687
44.100000	929.24758
44.120000	929.16648
44.140000	929.15273
44.160000	929.02487
44.180000	928.90035
44.200000	928.75666
44.220000	928.61437
44.240000	928.52984
44.260000	928.36939
44.280000	928.30625
44.300000	928.30787
44.320000	928.20960
44.340000	928.13454
44.360000	928.10326
44.380000	927.91583
44.400000	927.72940
44.420000	927.56506
44.440000	927.41300
44.460000	927.19840
44.480000	927.04352
44.500000	926.89231
44.520000	926.80731
44.540000	926.80869
44.560000	926.77374
44.580000	926.55527
44.600000	926.35524
44.620000	926.19132
44.640000	926.18551
44.660000	926.04146
44.680000	926.03557
44.700000	926.16038
44.720000	926.04377
44.740000	925.78988
44.760000	925.68683
44.780000	925.44439
44.800000	925.39110
44.820000	925.41051
44.840000	925.40750
44.860000	925.33779
44.880000	925.20434
44.900000	925.09926
44.920000	924.95281
44.940000	924.66094
44.960000	924.38913
44.980000	924.21345
45.000000	924.12068
45.020000	923.92971
45.040000	923.95539
45.060000	923.86272
45.080000	923.58760
45.100000	923.64792
45.120000	923.69794
45.140000	923.54251
45.160000	923.44561
45.180000	923.32570
45.200000	923.36119
45.220000	923.28127
45.240000	923.14314
45.260000	922.96000
45.280000	923.01391
45.300000	923.04705
45.320000	923.12373
45.340000	922.96091
45.360000	922.76656
45.380000	922.53882
45.400000	922.30567
45.420000	922.19122
45.440000	922.29860
45.460000	922.32991
45.480000	922.02847
45.500000	921.70279
45.520000	921.66527
45.540000	921.63833
45.560000	921.64008
45.580000	921.56795
45.600000	921.63065
45.620000	921.43418
45.640000	921.34905
45.660000	921.32860
45.680000	921.35648
45.700000	921.11264
45.720000	920.93158
45.740000	920.89611
45.760000	920.72804
45.780000	920.69930
45.800000	920.59239
45.820000	920.45585
45.840000	920.37090
45.860000	920.35273
45.880000	920.31040
45.900000	920.37374
45.920000	920.11143
45.940000	920.01448
45.960000	919.82450
45.980000	919.66899
46.000000	919.47173
46.020000	919.53182
46.040000	919.64289
46.060000	919.44117
46.080000	919.29691
46.100000	919.27868
46.120000	919.07159
46.140000	918.97200
46.160000	918.87810
46.180000	918.81057
46.200000	918.82253
46.220000	918.83854
46.240000	918.73683
46.260000	918.74191
46.280000	918.56430
46.300000	918.30781
46.320000	918.05669
46.340000	918.18711
46.360000	918.09320
46.380000	917.95775
46.400000	917.96200
46.420000	917.85970
46.440000	917.85673
46.460000	917.62197
46.480000	917.32278
46.500000	917.21899
46.520000	917.29857
46.540000	917.28449
46.560000	917.20857
46.580000	917.07781
46.600000	916.95538
46.620000	916.77717
46.640000	916.69089
46.660000	916.65422
46.680000	916.57172
46.700000	916.61784
46.720000	916.52623
46.740000	916.27831
46.760000	916.31074
46.780000	916.07999
46.800000	915.83365
46.820000	915.89544
46.840000	915.76803
46.860000	915.78166
46.880000	915.61433
46.900000	915.59549
46.920000	915.35239
46.940000	915.44483
46.960000	915.28878
46.980000	915.34078
47.000000	915.37145
47.020000	915.11367
47.040000	914.95312
47.060000	914.78108
47.080000	914.69696
47.100000	914.51293
47.120000	914.50366
47.140000	914.39892
47.160000	914.37192
47.180000	914.31695
47.200000	914.40918
47.220000	914.20797
47.240000	914.11925
47.260000	913.94621
47.280000	913.88377
47.300000	913.74010
47.320000	913.79747
47.340000	913.60192
47.360000	913.62303
47.380000	913.52988
47.400000	913.43015
47.420000	913.30214
47.440000	913.01397
47.460000	913.02335
47.480000	912.96249
47.500000	912.91556
47.520000	912.99857
47.540000	912.87758
47.560000	912.71183
47.580000	912.71395
47.600000	912.37452
47.620000	912.36014
47.640000	912.20460
47.660000	912.01393
47.680000	912.04740
47.700000	912.00991
47.720000	911.67197
47.740000	911.63650
47.760000	911.81956
47.780000	911.69225
47.800000	911.54440
47.820000	911.35657
47.840000	911.30026
47.860000	911.23783
47.880000	911.12473
47.900000	911.09055
47.920000	910.86014
47.940000	910.77170
47.960000	910.81131
47.980000	910.60323
48.000000	910.45672
48.020000	910.20988
48.040000	910.19777
48.060000	910.13398
48.080000	910.18990
48.100000	910.26695
48.120000	910.16596
48.140000	909.93747
48.160000	909.79415
48.180000	909.97883
48.200000	909.84247
48.220000	909.75088
48.240000	909.51572
48.260000	909.35434
48.280000	909.25724
48.300000	909.18789
48.320000	909.11422
48.340000	909.02650
48.360000	908.89039
48.380000	908.86272
48.400000	908.60975
48.420000	908.63721
48.440000	908.76094
48.460000	908.58098
48.480000	908.17972
48.500000	908.08636
48.520000	908.00894
48.540000	907.92799
48.560000	908.05689
48.580000	907.91413
48.600000	907.56862
48.620000	907.40453
48.640000	907.37288
48.660000	907.45395
48.680000	907.31277
48.700000	907.26780
48.720000	907.09364
48.740000	906.94526
48.760000	907.16398
48.780000	906.98310
48.800000	906.73306
48.820000	906.61119
48.840000	906.43321
48.860000	906.49526
48.880000	906.49839
48.900000	906.33831
48.920000	906.26590
48.940000	906.22284
48.960000	906.07415
48.980000	905.85186
49.000000	905.77423
49.020000	905.61981
49.040000	905.47722
49.060000	905.41762
49.080000	905.45624
49.100000	905.24654
49.120000	905.08481
49.140000	905.01103
49.160000	904.88913
49.180000	904.75197
49.200000	904.75646
49.220000	904.41734
49.240000	904.38618
49.260000	904.31460
49.280000	904.14268
49.300000	903.93404
49.320000	904.01028
49.340000	904.05844
49.360000	903.81722
49.380000	903.54801
49.400000	903.53774
49.420000	903.42559
49.440000	903.36542
49.460000	903.24997
49.480000	903.17961
49.500000	903.14532
49.520000	903.02662
49.540000	902.85397
49.560000	902.60140
49.580000	902.49495
49.600000	902.28476
49.620000	902.20309
49.640000	901.99695
49.660000	901.89604
49.680000	901.83188
49.700000	901.82171
49.720000	901.67705
49.740000	901.57446
49.760000	901.55409
49.780000	901.38025
49.800000	901.09295
49.820000	901.05221
49.840000	901.14783
49.860000	901.05396
49.880000	900.75304
49.900000	900.40699
49.920000	900.42729
49.940000	900.47922
49.960000	900.39086
49.980000	900.10944
50.000000	900.01976
50.020000	899.94727
50.040000	899.91467
50.060000	899.83307
50.080000	899.77153
50.100000	899.70038
50.120000	899.55591
50.140000	899.40902
50.160000	899.08294
50.180000	899.16438
50.200000	899.15042
50.220000	898.95348
50.240000	898.78411
50.260000	898.71863
50.280000	898.46174
50.300000	898.31955
50.320000	898.24869
50.340000	898.10586
50.360000	898.00471
50.380000	897.99632
50.400000	897.93224
50.420000	897.89969
50.440000	897.68806
50.460000	897.57946
50.480000	897.59425
50.500000	897.35163
50.520000	897.14903
50.540000	897.17927
50.560000	897.14428
50.580000	897.09598
50.600000	896.80468
50.620000	896.72269
50.640000	896.72545
50.660000	896.58283
50.680000	896.43927
50.700000	896.14918
50.720000	896.01827
50.740000	896.07154
50.760000	896.00540
50.780000	895.70733
50.800000	895.68223
50.820000	895.56218
50.840000	895.41019
50.860000	895.32477
50.880000	895.22874
50.900000	894.98887
50.920000	894.96822
50.940000	895.02645
50.960000	894.72130
50.980000	894.66818
51.000000	894.59078
51.020000	894.50519
51.040000	894.36841
51.060000	894.16091
51.080000	894.21670
51.100000	893.99245
51.120000	893.80814
51.140000	893.90211
51.160000	893.75389
51.180000	893.55412
51.200000	893.56697
51.220000	893.54188
51.240000	893.25000
51.260000	893.30401
51.280000	893.30401
51.300000	893.00714
51.320000	892.74694
51.340000	892.71481
51.360000	892.59987
51.380000	892.53883
51.400000	892.63245
51.420000	892.55997
51.440000	892.43287
51.460000	892.36671
51.480000	892.10860
51.500000	892.08792
51.520000	891.93343
51.540000	891.80645
51.560000	891.65611
51.580000	891.45314
51.600000	891.37976
51.620000	891.30366
51.640000	891.43867
51.660000	891.34664
51.680000	890.88833
51.700000	890.82295
51.720000	890.78952
51.740000	890.66071
51.760000	890.53818
51.780000	890.48454
51.800000	890.59962
51.820000	890.37449
51.840000	890.07779
51.860000	889.95404
51.880000	890.17289
51.900000	890.04176
51.920000	889.82754
51.940000	889.67387
51.960000	889.84552
51.980000	889.39689
52.000000	889.21764
52.020000	889.20586
52.040000	889.20673
52.060000	889.04130
52.080000	888.81496
52.100000	888.87401
52.120000	888.60139
52.140000	888.49773
52.160000	888.20626
52.180000	888.51159
52.200000	888.26163
52.220000	888.13886
52.240000	888.23670
52.260000	888.11853
52.280000	887.75645
52.300000	887.64064
52.320000	887.59860
52.340000	887.30136
52.360000	887.40108
52.380000	887.42682
52.400000	887.41244
52.420000	887.10694
52.440000	886.81598
52.460000	886.73817
52.480000	886.74092
52.500000	886.47090
52.520000	886.50861
52.540000	886.34174
52.560000	886.22575
52.580000	886.30851
52.600000	886.21159
52.620000	885.96074
52.640000	885.74215
52.660000	885.74398
52.680000	885.69790
52.700000	885.60469
52.720000	885.46079
52.740000	885.30563
52.760000	885.00711
52.780000	884.99907
52.800000	885.11850
52.820000	885.07051
52.840000	884.94801
52.860000	884.75972
52.880000	884.48387
52.900000	884.27819
52.920000	884.20043
52.940000	883.96452
52.960000	884.15094
52.980000	884.03984
53.000000	884.01514
53.020000	884.00936
53.040000	883.78198
53.060000	883.63270
53.080000	883.64203
53.100000	883.40387
53.120000	883.13199
53.140000	882.86182
53.160000	883.01010
53.180000	883.04692
53.200000	882.76150
53.220000	882.54899
53.240000	882.25901
53.260000	882.29000
53.280000	882.30434
53.300000	882.41920
53.320000	882.06686
53.340000	882.09960
53.360000	881.61030
53.380000	881.74347
53.400000	881.72286
53.420000	881.43465
53.440000	881.41836
53.460000	881.38020
53.480000	881.22853
53.500000	881.25585
53.520000	881.09673
53.540000	880.95110
53.560000	880.99329
53.580000	880.93756
53.600000	880.77932
53.620000	880.35067
53.640000	880.33567
53.660000	880.18763
53.680000	880.11110
53.700000	880.05966
53.720000	879.88998
53.740000	879.82238
53.760000	879.88000
53.780000	879.63107
53.800000	879.69458
53.820000	879.46396
53.840000	879.17671
53.860000	879.22665
53.880000	879.26191
53.900000	879.07352
53.920000	878.90696
53.940000	878.77174
53.960000	878.62103
53.980000	878.50572
54.000000	878.58199
54.020000	878.44349
54.040000	878.02601
54.060000	877.98044
54.080000	877.89839
54.100000	877.99526
54.120000	877.79193
54.140000	877.68612
54.160000	877.42672
54.180000	877.49879
54.200000	877.59780
54.220000	877.50945
54.240000	877.27386
54.260000	877.08575
54.280000	876.77661
54.300000	876.70387
54.320000	876.87380
54.340000	876.62594
54.360000	876.66297
54.380000	876.48763
54.400000	876.14533
54.420000	876.29975
54.440000	876.04822
54.460000	876.06123
54.480000	875.83592
54.500000	875.74350
54.520000	875.54036
54.540000	875.34098
54.560000	875.37777
54.580000	875.23203
54.600000	875.21297
54.620000	875.30046
54.640000	875.03008
54.660000	874.64691
54.680000	874.68099
54.700000	874.70038
54.720000	874.67838
54.740000	874.37500
54.760000	874.02525
54.780000	873.94993
54.800000	874.20826
54.820000	874.14809
54.840000	874.12179
54.860000	874.02773
54.880000	873.90481
54.900000	873.61409
54.920000	873.63969
54.940000	873.55328
54.960000	873.39196
54.980000	873.30218
55.000000	872.83683
55.020000	872.80899
55.040000	872.77067
55.060000	872.55990
55.080000	872.55844
55.100000	872.47589
55.120000	872.79905
55.140000	872.55000
55.160000	872.63924
55.180000	872.31226
55.200000	872.44085
55.220000	872.45650
55.240000	871.84714
55.260000	872.02660
55.280000	871.35369
55.300000	871.79227
55.320000	871.44387
55.340000	871.27344
55.360000	871.27741
55.380000	871.35575
55.400000	871.29229
55.420000	871.18830
55.440000	871.01080
55.460000	870.49160
55.480000	870.25872
55.500000	870.52243
55.520000	870.67349
55.540000	870.26004
55.560000	870.48747
55.580000	870.03777
55.600000	869.66643
55.620000	869.60036
55.640000	869.00570
55.660000	869.80624
55.680000	869.57459
55.700000	869.39595
55.720000	868.99627
55.740000	869.31827
55.760000	868.87514
55.780000	868.13950
55.800000	868.73645
55.820000	868.18388
55.840000	868.82768
55.860000	868.91642
55.880000	868.45749
55.900000	868.13993
55.920000	867.95659
55.940000	867.98820
55.960000	867.52188
55.980000	867.41600
56.000000	867.76401
56.020000	867.55712
56.040000	867.37370
56.060000	867.56688
56.080000	866.95942
56.100000	866.55030
56.120000	867.10335
56.140000	867.40521
56.160000	867.04821
56.180000	866.72577
56.200000	866.38123
56.220000	866.34172
56.240000	866.35751
56.260000	865.96413
56.280000	865.39036
56.300000	865.91492
56.320000	866.17710
56.340000	866.16916
56.360000	865.57141
56.380000	865.87592
56.400000	866.25068
56.420000	865.28710
56.440000	865.52198
56.460000	864.42982
56.480000	865.09411
56.500000	865.56459
56.520000	865.27582
56.540000	864.42184
56.560000	864.70349
56.580000	864.36258
56.600000	864.44777
56.620000	864.65312
56.640000	864.74362
56.660000	864.85718
56.680000	864.48475
56.700000	864.02639
56.720000	863.74540
56.740000	864.09197
56.760000	863.80715
56.780000	862.99724
56.800000	863.36681
56.820000	863.51325
56.840000	863.52509
56.860000	863.22215
56.880000	863.60220
56.900000	862.85774
56.920000	862.60190
56.940000	862.52504
56.960000	863.34940
56.980000	863.18481
57.000000	862.63174
57.020000	862.26556
57.040000	862.93698
57.060000	863.03688
57.080000	862.45709
57.100000	862.44271
57.120000	862.62120
57.140000	861.59820
57.160000	861.83972
57.180000	861.93216
57.200000	861.36401
57.220000	861.34190
57.240000	861.02626
57.260000	861.02248
57.280000	861.13513
57.300000	861.53242
57.320000	860.09289
57.340000	860.75198
57.360000	861.14155
57.380000	861.11418
57.400000	860.46368
57.420000	859.63362
57.440000	861.04289
57.460000	860.56451
57.480000	860.04192
57.500000	859.88315
57.520000	859.44026
57.540000	859.00523
57.560000	859.16876
57.580000	858.95064
57.600000	858.49044
57.620000	859.08037
57.640000	857.90960
57.660000	858.52436
57.680000	858.85651
57.700000	858.13133
57.720000	858.41887
57.740000	858.87617
57.760000	858.63364
57.780000	858.63624
57.800000	858.34445
57.820000	858.29971
57.840000	857.61734
57.860000	857.94440
57.880000	857.93796
57.900000	857.19650
57.920000	856.69459
57.940000	857.44069
57.960000	857.45745
57.980000	857.92214
58.000000	858.01970
58.020000	857.52694
58.040000	856.52622
58.060000	856.12923
58.080000	856.23804
58.100000	856.83454
58.120000	855.92125
58.140000	856.37636
58.160000	856.42958
58.180000	855.34389
58.200000	854.89491
58.220000	855.26757
58.240000	855.08142
58.260000	855.19616
58.280000	855.40626
58.300000	854.96748
58.320000	855.33861
58.340000	854.59185
58.360000	855.68908
58.380000	854.92006
58.400000	854.04468
58.420000	854.70404
58.440000	854.63829
58.460000	853.89778
58.480000	853.65411
58.500000	853.77307
58.520000	853.00771
58.540000	852.97274
58.560000	853.77060
58.580000	853.83244
58.600000	853.81233
58.620000	853.03578
58.640000	853.00988
58.660000	853.28320
58.680000	852.85370
58.700000	852.91391
58.720000	853.13446
58.740000	852.42448
58.760000	853.28419
58.780000	853.42282
58.800000	852.71594
58.820000	852.87896
58.840000	852.33522
58.860000	852.44197
58.880000	851.89091
58.900000	851.61281
58.920000	851.76088
58.940000	851.87612
58.960000	851.61727
58.980000	852.12625
59.000000	852.14630
59.020000	851.08694
59.040000	851.41255
59.060000	851.06350
59.080000	851.10975
59.100000	850.74903
59.120000	849.14340
59.140000	849.39343
59.160000	850.44550
59.180000	849.87594
59.200000	849.64163
59.220000	849.75294
59.240000	850.10704
59.260000	849.75860
59.280000	849.17372
59.300000	849.78226
59.320000	849.83865
59.340000	849.74326
59.360000	849.74078
59.380000	849.21383
59.400000	849.54318
59.420000	848.57799
59.440000	848.99408
59.460000	849.60088
59.480000	849.18420
59.500000	848.72819
59.520000	849.38672
59.540000	849.60148
59.560000	849.56801
59.580000	849.88918
59.600000	848.91154
59.620000	849.16733
59.640000	848.78202
59.660000	848.99838
59.680000	848.40383
59.700000	848.62475
59.720000	848.21398
59.740000	847.87555
59.760000	848.67419
59.780000	847.99426
59.800000	847.88156
59.820000	847.05060
59.840000	847.68020
59.860000	846.93758
59.880000	848.33641
59.900000	847.50319
59.920000	847.82337
59.940000	847.61134
59.960000	847.05644
59.980000	847.13888
60.000000	847.29101
